wavelength,intensity
243.78943,3.0918685e+11
243.84216,3.1925456e+11
243.8949,3.4363104e+11
243.94763,3.5463945e+11
244.00037,3.2444334e+11
244.05309,2.5024812e+11
244.1058,1.6222667e+11
244.15851,9.81213e+10
244.21121,8.419205e+10
244.26392,1.3437365e+11
244.3166,2.4986663e+11
244.36931,4.1996665e+11
244.42198,6.241157e+11
244.47467,8.210645e+11
244.52734,9.4215465e+11
244.58002,9.3033346e+11
244.63268,7.9486714e+11
244.68533,6.132596e+11
244.73799,4.5893822e+11
244.79065,3.3966142e+11
244.84329,2.3050229e+11
244.89594,1.3434854e+11
244.94856,7.4486e+10
245.00119,5.110152e+10
245.05382,4.1603326e+10
245.10645,3.1428127e+10
245.15906,1.8248636e+10
245.21165,1.9430377e+09
245.26427,-1.2149308e+10
245.31686,-1.207064e+10
245.36946,8.23816e+09
245.42204,4.0536334e+10
245.47464,6.6793902e+10
245.5272,7.159661e+10
245.57979,5.769686e+10
245.63235,4.5060518e+10
245.68492,5.5192596e+10
245.73747,9.9635044e+10
245.79002,1.7527636e+11
245.84258,2.6500922e+11
245.89513,3.4378374e+11
245.94766,3.9425573e+11
246.0002,4.239666e+11
246.05272,4.5985474e+11
246.10524,5.1824306e+11
246.15776,5.8592166e+11
246.21028,6.290596e+11
246.26279,6.192604e+11
246.31529,5.620412e+11
246.36778,4.942292e+11
246.42027,4.5086953e+11
246.47276,4.3862622e+11
246.52525,4.4061216e+11
246.57773,4.404879e+11
246.6302,4.2749487e+11
246.68266,3.8960618e+11
246.73514,3.2078234e+11
246.78758,2.324757e+11
246.84004,1.5558725e+11
246.89249,1.2307081e+11
246.94493,1.3902994e+11
246.99738,1.7599146e+11
247.0498,2.0677917e+11
247.10223,2.2281655e+11
247.15465,2.2560516e+11
247.20706,2.2134571e+11
247.25948,2.2210313e+11
247.31189,2.3257897e+11
247.36429,2.3853969e+11
247.41669,2.233232e+11
247.46907,1.9011843e+11
247.52147,1.5563871e+11
247.57384,1.3126045e+11
247.62622,1.2758113e+11
247.67859,1.4358533e+11
247.73096,2.9123504e+11
247.78333,4.8963338e+11
247.83568,7.226195e+11
247.88803,9.099486e+11
247.94037,1.1987464e+12
247.99272,8.569832e+11
248.04506,6.163433e+11
248.09738,4.902435e+11
248.1497,4.175742e+11
248.20203,4.4654343e+11
248.25435,5.3920363e+11
248.30666,6.379933e+11
248.35896,6.8666085e+11
248.41127,6.5576016e+11
248.46356,5.553534e+11
248.51585,4.2311654e+11
248.56813,3.0655018e+11
248.62042,2.4469832e+11
248.6727,2.4599618e+11
248.72496,2.906398e+11
248.77722,3.621052e+11
248.82948,4.6305794e+11
248.88174,5.9716705e+11
248.93399,7.5408035e+11
248.98624,9.139967e+11
249.03848,1.0490744e+12
249.09071,1.1321413e+12
249.14294,1.165941e+12
249.19518,1.1928911e+12
249.24739,1.261289e+12
249.2996,1.3754057e+12
249.35182,1.4585236e+12
249.40402,1.8612177e+12
249.45622,1.2451521e+12
249.50842,4.5408675e+11
249.56061,1.5973214e+11
249.6128,1.9859307e+11
249.66498,1.6461013e+11
249.71715,2.0757124e+11
249.76932,2.960784e+11
249.82149,4.100909e+11
249.87364,5.1642243e+11
249.9258,5.6947756e+11
249.97795,5.7185855e+11
250.03009,4.4205084e+11
250.08223,3.239306e+11
250.13437,2.898723e+11
250.1865,2.997685e+11
250.23862,3.4930003e+11
250.29074,4.12188e+11
250.34285,4.6502707e+11
250.39496,4.8985e+11
250.44707,4.8564598e+11
250.49916,4.8063942e+11
250.55125,4.8166083e+11
250.60335,6.2412685e+11
250.65544,8.8793324e+11
250.70752,1.1122124e+12
250.75958,1.5026386e+12
250.81166,1.3241063e+12
250.86372,8.127987e+11
250.91579,3.9896567e+11
250.96783,4.723483e+11
251.01988,4.7173734e+11
251.07193,5.63678e+11
251.12396,7.1172194e+11
251.176,8.735794e+11
251.22803,1.030842e+12
251.28006,1.1030676e+12
251.33208,1.1322824e+12
251.3841,1.0331486e+12
251.4361,1.45237e+12
251.4881,2.069066e+12
251.5401,2.7302193e+12
251.59209,3.0763854e+12
251.64409,3.3613737e+12
251.69606,3.9875557e+12
251.74805,3.128924e+12
251.80002,1.5910072e+12
251.85199,1.1568185e+12
251.90395,1.3087335e+12
251.95592,1.3241676e+12
252.00786,1.534991e+12
252.05981,1.1284171e+12
252.11176,7.3234946e+11
252.1637,7.644539e+11
252.21562,8.4172086e+11
252.26756,9.719866e+11
252.31949,1.1495958e+12
252.3714,1.3602268e+12
252.42331,1.5723541e+12
252.47522,1.7444159e+12
252.52713,2.0280586e+12
252.57903,1.8531073e+12
252.63092,1.8068558e+12
252.6828,1.820375e+12
252.7347,1.8114545e+12
252.78658,2.0105072e+12
252.83844,2.375452e+12
252.8903,2.652863e+12
252.94217,2.5337203e+12
252.99403,2.0486429e+12
253.04588,1.5271862e+12
253.09773,1.07158136e+12
253.14958,5.899371e+11
253.20142,5.3038088e+11
253.25325,4.9735624e+11
253.30508,5.68177e+11
253.3569,7.2251854e+11
253.40872,8.867923e+11
253.46054,1.1055914e+12
253.51234,1.0722412e+12
253.56415,9.750706e+11
253.61595,9.4234516e+11
253.66774,1.0706704e+12
253.71953,1.1917944e+12
253.77132,1.3171162e+12
253.82309,1.4459041e+12
253.87486,1.5090976e+12
253.92664,1.7624717e+12
253.9784,2.0877629e+12
254.03015,1.916739e+12
254.08191,1.6695272e+12
254.13365,1.6955806e+12
254.1854,1.6744109e+12
254.23714,1.7501858e+12
254.28888,1.6970222e+12
254.3406,1.1413498e+12
254.39232,6.1585634e+11
254.44405,6.4277814e+11
254.49576,5.2756775e+11
254.54747,4.7154994e+11
254.59917,4.728891e+11
254.65086,4.8153723e+11
254.70256,4.8966035e+11
254.75424,4.990012e+11
254.80594,5.3086018e+11
254.8576,5.564414e+11
254.90929,7.436675e+11
254.96095,9.3055975e+11
255.01262,1.1591869e+12
255.06427,1.0215299e+12
255.11594,7.3508284e+11
255.16757,5.0721256e+11
255.21922,2.762019e+11
255.27086,8.831234e+10
255.3225,1.7517275e+10
255.37413,-2.4764848e+10
255.42575,-3.2930464e+10
255.47737,-2.5525998e+10
255.52898,-1.122665e+10
255.58058,5.1699395e+09
255.63219,1.7975611e+10
255.68379,2.343282e+10
255.73538,2.4991158e+10
255.78697,3.2503402e+10
255.83856,5.4996177e+10
255.89014,9.581647e+10
255.94171,1.5183605e+11
255.99329,2.149413e+11
256.04483,2.812563e+11
256.0964,3.66579e+11
256.14795,4.318734e+11
256.1995,5.779951e+11
256.25104,1.0712377e+12
256.30258,1.5376835e+12
256.35413,2.0614857e+12
256.40564,2.022912e+12
256.45718,1.6140715e+12
256.5087,9.531941e+11
256.5602,5.759354e+11
256.61172,6.8408784e+11
256.6632,6.28312e+11
256.71472,5.9967504e+11
256.7662,5.4372087e+11
256.81772,4.6751498e+11
256.8692,3.3763482e+11
256.92065,2.1705189e+11
256.97214,1.10884405e+11
257.02362,6.647104e+10
257.07507,5.334628e+10
257.12653,5.707543e+10
257.17798,5.3909635e+10
257.22943,3.683868e+10
257.28088,2.0292962e+10
257.33234,1.9372542e+10
257.38376,7.212425e+10
257.43518,1.478451e+11
257.4866,2.3774003e+11
257.53802,3.227062e+11
257.58945,3.8876712e+11
257.64087,4.2881303e+11
257.69226,4.4685446e+11
257.74365,4.4131477e+11
257.79504,3.5316502e+11
257.84644,2.566981e+11
257.89783,1.7560129e+11
257.94922,9.9170435e+10
258.00058,4.51625e+10
258.05197,2.126588e+10
258.10333,2.5299118e+10
258.1547,4.938668e+10
258.20602,8.834735e+10
258.2574,1.373427e+11
258.30875,1.8311722e+11
258.36008,2.3330465e+11
258.4114,2.2724908e+11
258.46274,1.1859278e+11
258.51407,2.8568447e+11
258.56537,6.2614235e+11
258.6167,9.315387e+11
258.668,1.2215706e+12
258.71933,1.1211597e+12
258.77063,4.280171e+11
258.8219,8.997428e+10
258.8732,1.2904578e+11
258.9245,6.3528317e+10
258.97577,2.1035915e+10
259.02704,1.01882e+10
259.0783,3.9425364e+10
259.12958,1.5325617e+11
259.18085,2.6777895e+11
259.2321,3.775319e+11
259.28336,5.030271e+11
259.3346,5.1619358e+11
259.38583,5.541195e+11
259.43707,4.5184998e+11
259.4883,3.2960745e+11
259.53952,2.0486149e+11
259.59076,1.2663662e+11
259.64197,8.111199e+10
259.69318,1.3454454e+11
259.7444,3.6388356e+11
259.7956,7.8694934e+11
259.84677,1.5606941e+12
259.89798,2.4161411e+12
259.94916,3.4142408e+12
260.00034,3.5102814e+12
260.0515,3.071e+12
260.1027,1.7196198e+12
260.15387,3.647805e+11
260.20502,8.192489e+10
260.25616,5.036606e+10
260.30734,2.993208e+10
260.3585,2.5782569e+10
260.4096,4.5793886e+10
260.46075,1.0887899e+11
260.5119,2.0814804e+11
260.56302,3.6277066e+11
260.61414,6.0158155e+11
260.66525,8.517018e+11
260.71637,1.1183197e+12
260.7675,1.3903861e+12
260.81857,1.4412255e+12
260.8697,8.191689e+11
260.92078,2.2192749e+11
260.97186,1.2772434e+11
261.02295,2.025907e+11
261.074,2.908431e+11
261.1251,5.5845696e+11
261.17615,9.866357e+11
261.22723,1.4674681e+12
261.2783,1.8349616e+12
261.32935,1.6292063e+12
261.38037,9.030489e+11
261.43143,8.089526e+11
261.48245,9.161912e+11
261.5335,6.250699e+11
261.58453,1.514258e+11
261.63556,4.1110295e+10
261.68655,1.1960809e+11
261.73758,2.7631413e+11
261.78857,3.851439e+11
261.8396,6.040364e+11
261.8906,5.932539e+11
261.9416,3.0584023e+11
261.99258,1.0449897e+11
262.04355,1.4468823e+11
262.09454,1.6217865e+11
262.1455,1.9242708e+11
262.19647,2.24082e+11
262.24744,2.2384371e+11
262.2984,2.0030816e+11
262.34937,1.3683691e+11
262.4003,1.1793465e+11
262.45126,2.025639e+11
262.5022,3.8152644e+11
262.55313,6.3157934e+11
262.60406,9.395035e+11
262.655,1.1856109e+12
262.7059,1.0122139e+12
262.7568,4.7602857e+11
262.80774,4.3122963e+11
262.85864,6.749958e+11
262.90955,8.715371e+11
262.96042,9.429023e+11
263.01132,7.762175e+11
263.0622,1.0096448e+12
263.1131,1.5748885e+12
263.16397,2.1817987e+12
263.21484,2.62203e+12
263.2657,2.0882757e+12
263.31656,8.565559e+11
263.36743,2.4083933e+11
263.41827,1.18997836e+11
263.46912,9.596135e+10
263.51996,4.7848026e+10
263.5708,2.813634e+10
263.6216,2.3370445e+10
263.67245,2.4658119e+10
263.72327,2.9070821e+10
263.77408,3.5108758e+10
263.8249,4.100824e+10
263.8757,4.4820656e+10
263.9265,4.4508934e+10
263.9773,3.9972516e+10
264.0281,3.450921e+10
264.0789,3.1398844e+10
264.12967,3.0557325e+10
264.18045,2.9955207e+10
264.23123,2.7972446e+10
264.28198,2.4162998e+10
264.33276,1.9620022e+10
264.3835,1.720178e+10
264.43427,1.984212e+10
264.48502,2.7042441e+10
264.53574,3.4911162e+10
264.5865,4.0566653e+10
264.63724,4.325994e+10
264.68796,4.1006404e+10
264.73868,3.1285737e+10
264.7894,1.5862826e+10
264.84012,1.1138477e+09
264.8908,-6.198127e+09
264.94153,-3.0996823e+09
264.99222,7.1237586e+09
265.0429,1.6655865e+10
265.0936,1.973573e+10
265.1443,1.7434655e+10
265.19498,1.4573844e+10
265.24564,1.4298066e+10
265.2963,1.6250073e+10
265.347,1.719347e+10
265.39764,1.4366453e+10
265.44827,9.040933e+09
265.49893,4.9642173e+09
265.5496,3.86249e+09
265.60022,4.297778e+09
265.65085,4.7314995e+09
265.70148,5.3267466e+09
265.7521,6.63347e+09
265.80273,9.02967e+09
265.85336,1.2917725e+10
265.90396,1.7516612e+10
265.95456,2.1013553e+10
266.00516,2.3948562e+10
266.05576,2.934668e+10
266.10635,3.7240414e+10
266.15695,4.3231416e+10
266.20752,4.467587e+10
266.2581,4.6227534e+10
266.30865,5.8462614e+10
266.35922,8.6332146e+10
266.4098,1.5120518e+11
266.46036,2.3017739e+11
266.5109,3.2380794e+11
266.56146,4.2504392e+11
266.612,3.6577726e+11
266.66254,3.2183252e+11
266.71307,3.1936587e+11
266.76358,3.4555907e+11
266.81412,2.4413808e+11
266.86462,1.4793086e+11
266.91513,8.226748e+10
266.96567,4.8728646e+10
267.01614,3.259773e+10
267.06665,2.6755404e+10
267.11716,2.4194896e+10
267.16763,2.4457828e+10
267.2181,2.8237398e+10
267.2686,3.3306399e+10
267.31906,3.4762125e+10
267.36954,2.9774084e+10
267.42,2.103646e+10
267.47046,1.3415536e+10
267.5209,9.436033e+09
267.57138,9.094936e+09
267.62183,1.1441205e+10
267.67224,1.5273355e+10
267.7227,1.8841182e+10
267.7731,2.0608213e+10
267.82355,2.0844704e+10
267.87396,2.1546918e+10
267.92438,2.4866982e+10
267.9748,3.0865734e+10
268.02518,3.7107593e+10
268.0756,4.1744384e+10
268.12598,4.520345e+10
268.1764,4.7999345e+10
268.22678,5.00163e+10
268.27713,5.2895175e+10
268.3275,6.127504e+10
268.3779,8.112415e+10
268.42825,1.1532384e+11
268.4786,1.5797674e+11
268.52896,1.9665476e+11
268.5793,2.7020662e+11
268.62967,1.6604666e+11
268.68002,1.1390008e+11
268.73035,7.893561e+10
268.7807,5.70325e+10
268.83102,4.946893e+10
268.88135,4.910901e+10
268.93164,5.1082105e+10
268.98196,5.1935662e+10
269.0323,4.9946554e+10
269.08258,4.8490463e+10
269.13287,5.668138e+10
269.18317,8.3388195e+10
269.23346,1.2865846e+11
269.28375,1.8424404e+11
269.334,2.5202128e+11
269.38428,2.6950826e+11
269.43457,1.6021058e+11
269.48483,1.06909794e+11
269.5351,7.680306e+10
269.58533,7.2755405e+10
269.6356,7.456382e+10
269.68582,7.794333e+10
269.73608,8.027332e+10
269.78632,8.238987e+10
269.83655,8.3925385e+10
269.88675,8.238712e+10
269.93698,7.528577e+10
269.9872,6.2981063e+10
270.0374,4.9945432e+10
270.08762,4.235081e+10
270.13782,4.371236e+10
270.18802,5.3137994e+10
270.2382,6.7451134e+10
270.2884,8.484567e+10
270.33856,1.0713573e+11
270.38873,1.36737554e+11
270.4389,1.6707707e+11
270.48907,2.3817873e+11
270.53925,1.6986726e+11
270.58942,1.1329869e+11
270.63956,9.8479735e+10
270.6897,1.0476427e+11
270.73984,1.07570495e+11
270.78998,1.0377022e+11
270.84012,9.274432e+10
270.89023,8.20264e+10
270.94037,7.649832e+10
270.99048,7.4043015e+10
271.0406,7.11148e+10
271.0907,7.082153e+10
271.1408,8.1377075e+10
271.19092,1.0535036e+11
271.241,1.3304553e+11
271.29108,1.5647937e+11
271.3412,1.6341977e+11
271.39127,1.3894512e+11
271.4413,2.2983146e+11
271.4914,3.4254514e+11
271.54147,4.588378e+11
271.59152,3.2752242e+11
271.64157,1.6671903e+11
271.69162,1.870288e+11
271.74167,1.5090208e+11
271.79172,1.371097e+11
271.84174,1.07921555e+11
271.89178,1.9686977e+11
271.9418,2.5192926e+11
271.99182,3.643684e+11
272.04184,3.098061e+11
272.09186,2.2005074e+11
272.14188,1.7839035e+11
272.19186,1.4999031e+11
272.24185,1.24310675e+11
272.29184,8.421536e+10
272.34183,6.946186e+10
272.3918,6.43574e+10
272.4418,6.8336746e+10
272.49176,7.345341e+10
272.54175,7.737402e+10
272.5917,8.549636e+10
272.64166,1.0018353e+11
272.69162,9.8763375e+10
272.74158,2.5265101e+11
272.7915,4.6214686e+11
272.84146,6.386626e+11
272.8914,4.7254267e+11
272.9413,1.2628642e+11
272.99124,2.4089956e+10
273.04117,6.980355e+10
273.09106,7.939388e+10
273.141,9.017197e+10
273.1909,1.1036576e+11
273.24078,6.7064246e+10
273.29068,4.935195e+10
273.34058,4.7992287e+10
273.39044,6.0827628e+10
273.44034,8.1549844e+10
273.4902,7.638653e+10
273.54007,6.8588892e+10
273.58994,8.948344e+10
273.6398,1.0945769e+11
273.68967,2.2729794e+11
273.73953,3.2191984e+11
273.78937,4.8498514e+11
273.8392,4.811679e+11
273.88904,3.6360444e+11
273.93887,7.547535e+11
273.9887,1.5769646e+12
274.03854,2.2729363e+12
274.08835,1.8391623e+12
274.13815,6.3457244e+11
274.18796,1.8923138e+11
274.23776,2.2936914e+11
274.28757,4.3346274e+11
274.33737,8.283403e+11
274.38715,1.1885169e+12
274.43695,1.160517e+12
274.48672,5.986984e+11
274.5365,2.5484817e+11
274.58627,3.0074798e+11
274.63602,7.436363e+11
274.6858,1.7534224e+12
274.73553,2.8186113e+12
274.78528,2.9065515e+12
274.83502,1.7074751e+12
274.88477,9.341313e+11
274.9345,1.5597673e+12
274.98425,2.777136e+12
275.03397,3.3391208e+12
275.08368,2.0412445e+12
275.13342,6.6173534e+11
275.18314,3.2624804e+11
275.23282,2.777304e+11
275.28253,3.07577e+11
275.3322,4.660662e+11
275.38193,6.7187625e+11
275.4316,7.543359e+11
275.4813,5.458427e+11
275.53098,5.0686103e+11
275.58063,1.2505604e+12
275.6303,2.3823804e+12
275.67996,2.7383172e+12
275.72964,1.5206386e+12
275.7793,3.8346395e+11
275.82895,1.34089105e+11
275.87857,7.874754e+10
275.92822,5.995313e+10
275.97784,2.632467e+10
276.0275,9.885553e+09
276.07712,6.5709757e+09
276.12674,1.7549103e+10
276.17636,3.8607536e+10
276.22595,6.8424126e+10
276.27557,1.0756368e+11
276.32516,6.834333e+10
276.37476,4.0334795e+10
276.42435,1.464645e+10
276.47394,1.9104659e+09
276.52353,2.1768042e+08
276.5731,5.8020424e+09
276.62268,2.6686915e+10
276.67224,3.3495095e+10
276.7218,8.4875534e+10
276.77136,3.4853077e+11
276.82092,6.7743796e+11
276.87045,6.5875653e+11
276.92,3.1022013e+11
276.96954,1.5821156e+11
277.01907,1.5402403e+11
277.0686,8.998328e+10
277.11813,4.4366488e+10
277.16763,1.0040468e+10
277.21716,5.2424532e+07
277.26666,-4.404537e+09
277.31616,-6.623923e+09
277.3657,-9.464204e+09
277.41516,-9.86777e+09
277.46466,-4.521492e+09
277.51416,5.3031506e+09
277.56363,1.74038e+10
277.6131,3.4314725e+10
277.66257,5.2400976e+10
277.71204,9.345767e+10
277.7615,1.3165708e+11
277.81097,1.61577e+11
277.8604,1.7721006e+11
277.90985,2.6947982e+11
277.95932,3.7458012e+11
278.00873,5.3326735e+11
278.05817,6.1191284e+11
278.1076,4.4743783e+11
278.157,2.4590574e+11
278.20645,2.2850458e+11
278.25586,2.323655e+11
278.30527,1.925631e+11
278.35468,2.8878828e+11
278.40408,4.2367287e+11
278.45346,5.2724607e+11
278.50287,3.9136117e+11
278.55225,2.6565603e+11
278.60162,2.6701604e+11
278.651,2.4652807e+11
278.70038,2.3663146e+11
278.74973,2.3466402e+11
278.7991,2.7957877e+11
278.84845,3.3626774e+11
278.8978,4.1197296e+11
278.94714,4.507761e+11
278.9965,4.227072e+11
279.04584,6.405323e+11
279.09515,1.5271128e+12
279.1445,3.0280702e+12
279.19382,3.2411998e+12
279.24313,1.9003912e+12
279.29245,9.9560404e+11
279.34177,8.5438156e+11
279.39105,9.470642e+11
279.44037,1.1806262e+12
279.48965,1.755595e+12
279.53894,3.711297e+12
279.58823,9.303484e+12
279.6375,1.4238073e+13
279.68677,1.060221e+13
279.73605,4.231185e+12
279.7853,2.5437704e+12
279.83456,4.213633e+12
279.88382,6.395903e+12
279.93307,5.1833256e+12
279.98233,2.374799e+12
280.03156,1.3212962e+12
280.0808,1.09074376e+12
280.13004,1.08998066e+12
280.17926,1.2018e+12
280.2285,1.6753168e+12
280.2777,3.9771035e+12
280.3269,9.033921e+12
280.37613,1.0423254e+13
280.42532,5.261131e+12
280.47452,1.731158e+12
280.5237,1.01785403e+12
280.5729,8.7165816e+11
280.6221,7.045132e+11
280.67126,5.774371e+11
280.72046,5.141595e+11
280.76962,4.5364766e+11
280.8188,4.0559916e+11
280.86795,3.649065e+11
280.9171,3.4443448e+11
280.96625,3.370697e+11
281.01538,3.4241354e+11
281.06454,3.5620504e+11
281.11368,4.054497e+11
281.1628,3.3333333e+11
281.21194,2.9008232e+11
281.26105,2.5354052e+11
281.31018,2.4520735e+11
281.35928,2.4996217e+11
281.4084,2.752622e+11
281.4575,2.3717326e+11
281.5066,2.1138445e+11
281.5557,1.9882654e+11
281.60477,2.1322392e+11
281.65387,3.4933785e+11
281.70294,5.3781142e+11
281.752,4.7483293e+11
281.8011,3.4187533e+11
281.85016,3.2744443e+11
281.8992,2.8933915e+11
281.94827,2.203725e+11
281.9973,1.7767586e+11
282.04636,1.5613279e+11
282.0954,1.3589865e+11
282.14444,1.2086863e+11
282.19348,1.0876333e+11
282.2425,9.934435e+10
282.29153,9.305093e+10
282.34055,8.990916e+10
282.38956,8.763489e+10
282.43857,8.293691e+10
282.48755,7.609427e+10
282.53656,7.16432e+10
282.58554,7.307408e+10
282.63455,7.909201e+10
282.68353,8.837514e+10
282.7325,9.995478e+10
282.7815,1.3450556e+11
282.83044,1.9986865e+11
282.87943,3.0578688e+11
282.92838,3.8220638e+11
282.97733,2.3841736e+11
283.02628,1.4424012e+11
283.07523,7.290758e+10
283.12418,7.435948e+10
283.1731,1.3542988e+11
283.22205,2.3285159e+11
283.27097,3.154599e+11
283.3199,2.2507918e+11
283.3688,1.518423e+11
283.41772,8.3540074e+10
283.4666,8.512816e+10
283.51553,8.315779e+10
283.56442,8.625912e+10
283.6133,1.4482235e+11
283.6622,2.0555014e+11
283.7111,2.4762961e+11
283.75998,2.8961246e+11
283.80884,2.6332347e+11
283.85773,2.3082472e+11
283.9066,1.9620504e+11
283.95544,1.4407844e+11
284.0043,1.6426086e+11
284.05316,2.1948957e+11
284.102,2.754943e+11
284.15085,2.5682787e+11
284.19968,2.2193886e+11
284.2485,2.0348726e+11
284.29733,2.0286384e+11
284.34616,1.2011347e+11
284.395,1.0037773e+11
284.4438,9.425279e+10
284.49258,8.899506e+10
284.5414,8.766385e+10
284.5902,8.8064115e+10
284.63898,1.0240449e+11
284.68777,1.03665705e+11
284.73657,9.283733e+10
284.78534,8.449728e+10
284.8341,1.01473305e+11
284.8829,1.4615074e+11
284.93167,1.4299138e+11
284.9804,1.4631254e+11
285.02917,1.4509136e+11
285.0779,1.4825764e+11
285.12668,1.6755537e+11
285.1754,2.9600865e+11
285.22415,8.152401e+11
285.2729,2.3607247e+12
285.32162,2.7420606e+12
285.37033,1.1339285e+12
285.41907,3.6580852e+11
285.46777,2.3256608e+11
285.51648,1.8465251e+11
285.5652,1.5495504e+11
285.6139,1.7842956e+11
285.66257,2.0083271e+11
285.71127,2.2327366e+11
285.75995,2.1828097e+11
285.80862,2.1835992e+11
285.8573,2.1273433e+11
285.90598,2.4996476e+11
285.95465,1.8222049e+11
286.0033,9.468718e+10
286.05197,6.5880048e+10
286.10062,4.220724e+10
286.14926,4.53677e+10
286.1979,6.1126717e+10
286.24655,8.38958e+10
286.29517,1.36552145e+11
286.3438,1.1872983e+11
286.39243,6.6773225e+10
286.44104,3.2277324e+10
286.48965,1.8898407e+10
286.53827,6.944683e+09
286.58688,-1.8416675e+09
286.63547,-9.454407e+09
286.68408,-1.5629653e+10
286.73267,-1.9194014e+10
286.78125,-1.7705486e+10
286.82983,-8.2903045e+09
286.87842,9.053075e+09
286.92697,3.2587604e+10
